# state dump file
# x  y  z  radius_2D  radius_3D  den  pres  sie  sspd  vol  mass 
4.263505000233e-02	 9.570338295605e-01	 -1.802419267226e-01	 9.579830365993e-01	 9.747915933987e-01	 8.935979812608e+00	 8.705214322515e-04	 1.000880971747e-04	 4.584013294034e-01	 1.179636463500e-03	 1.054120762405e-02	 
1.280997773797e-01	 9.446480660863e-01	 -1.802885222620e-01	 9.532940373911e-01	 9.701924927481e-01	 8.936691773723e+00	 9.741663874002e-04	 9.989124433031e-05	 4.583830692670e-01	 1.299230451132e-03	 1.161082208480e-02	 
2.128820242499e-01	 9.266165927837e-01	 -1.803087964686e-01	 9.507560498208e-01	 9.677026032593e-01	 8.937202398213e+00	 1.048501419655e-03	 9.906627430515e-05	 4.583699742874e-01	 1.350890911340e-03	 1.207318549255e-02	 
2.967922770100e-01	 9.032014757609e-01	 -1.803031592680e-01	 9.507147634856e-01	 9.676609895782e-01	 8.936273105678e+00	 9.132180717861e-04	 9.844011198709e-05	 4.583938068582e-01	 1.381072701711e-03	 1.234164284129e-02	 
3.790556531544e-01	 8.744348322744e-01	 -1.802792591996e-01	 9.530579542101e-01	 9.699588008677e-01	 8.934582340849e+00	 6.670820944902e-04	 9.806250754205e-05	 4.584371776300e-01	 1.321234533810e-03	 1.180467873390e-02	 
4.578397437655e-01	 8.397276795289e-01	 -1.802220282529e-01	 9.564307642157e-01	 9.732624446704e-01	 8.934160374568e+00	 6.056536325738e-04	 9.844710263547e-05	 4.584480036471e-01	 1.240970168469e-03	 1.108702650516e-02	 
5.340144852076e-01	 8.011881989728e-01	 -1.801148794138e-01	 9.628468209350e-01	 9.795485543713e-01	 8.935175681964e+00	 7.534587405197e-04	 9.814783664316e-05	 4.584219560970e-01	 1.121823590131e-03	 1.002369086199e-02	 
6.057752529768e-01	 7.600228536438e-01	 -1.799591526721e-01	 9.719045195800e-01	 9.884248539016e-01	 8.934431036386e+00	 6.450556889356e-04	 9.727201405580e-05	 4.584410594271e-01	 8.751632716961e-04	 7.819085896547e-03	 
6.693774125790e-01	 7.187754762104e-01	 -1.797712687890e-01	 9.821936192383e-01	 9.985098971740e-01	 8.932731549913e+00	 3.976500433265e-04	 9.863478641709e-05	 4.584846674389e-01	 5.726685132772e-04	 5.115494096193e-03	 
7.184712659386e-01	 6.689355925402e-01	 -1.797820940263e-01	 9.816698971378e-01	 9.979966875090e-01	 8.932735786640e+00	 3.982668121564e-04	 9.794852864501e-05	 4.584845587110e-01	 5.849998993622e-04	 5.225649536213e-03	 
7.594892465889e-01	 6.051008937850e-01	 -1.799742992809e-01	 9.710669427715e-01	 9.876040480604e-01	 8.933595009070e+00	 5.233495846064e-04	 9.720469008438e-05	 4.584625099340e-01	 8.896649567716e-04	 7.947906417559e-03	 
8.009396301870e-01	 5.337130541688e-01	 -1.801269092699e-01	 9.624728128079e-01	 9.791831385586e-01	 8.933970160580e+00	 5.779629064520e-04	 9.758323926365e-05	 4.584528840506e-01	 1.125172702394e-03	 1.005225934869e-02	 
8.396605019442e-01	 4.577787938464e-01	 -1.802297322817e-01	 9.563426073436e-01	 9.731772392627e-01	 8.933142253199e+00	 4.574388755203e-04	 9.862020243344e-05	 4.584741278483e-01	 1.242162758599e-03	 1.109641662419e-02	 
8.743459198045e-01	 3.789784724213e-01	 -1.802795487106e-01	 9.529456805283e-01	 9.698485375155e-01	 8.932790952843e+00	 4.062977263471e-04	 9.866686823633e-05	 4.584831429781e-01	 1.325041818381e-03	 1.183632156737e-02	 
9.029214097129e-01	 2.965111922429e-01	 -1.803106531112e-01	 9.503609626049e-01	 9.673147837538e-01	 8.934020642770e+00	 5.853119373943e-04	 9.838494491667e-05	 4.584515887918e-01	 1.393661939377e-03	 1.245100453544e-02	 
9.258695992968e-01	 2.121237274943e-01	 -1.803251141582e-01	 9.498584055890e-01	 9.668237365023e-01	 8.934615891258e+00	 6.719662526204e-04	 9.859495980841e-05	 4.584363168896e-01	 1.380450801173e-03	 1.233379766526e-02	 
9.437477713667e-01	 1.271889029382e-01	 -1.803052817095e-01	 9.522798291417e-01	 9.691990856385e-01	 8.933873306976e+00	 5.638632776396e-04	 9.910395036498e-05	 4.584553691258e-01	 1.317990364305e-03	 1.177475893452e-02	 
9.566513274147e-01	 4.226294563750e-02	 -1.802399577474e-01	 9.575844186380e-01	 9.743994874727e-01	 8.935135909667e+00	 7.476688205074e-04	 9.984542120909e-05	 4.584229763654e-01	 1.178851562032e-03	 1.053319892407e-02	 
8.510154668632e-01	 3.979697120595e-02	 -1.811364099052e-01	 8.519454934194e-01	 8.709888189586e-01	 8.937589871663e+00	 1.104908528839e-03	 1.081292128616e-04	 4.583600382687e-01	 1.060769751975e-03	 9.480724991421e-03	 
7.477954702417e-01	 3.897164948206e-02	 -1.812504258188e-01	 7.488102929163e-01	 7.704340151089e-01	 8.940087655445e+00	 1.468527668350e-03	 1.084066680433e-04	 4.582960028648e-01	 1.018179158262e-03	 9.102610923808e-03	 
6.455274278475e-01	 3.858425134288e-02	 -1.810883951037e-01	 6.466795222945e-01	 6.715559629668e-01	 8.942995715094e+00	 1.891873417929e-03	 1.094524858414e-04	 4.582214830664e-01	 1.007587360532e-03	 9.010849447819e-03	 
5.439820694516e-01	 3.853731067487e-02	 -1.808959149063e-01	 5.453454099915e-01	 5.745650078352e-01	 8.943912155831e+00	 2.025285843194e-03	 1.099682780461e-04	 4.581980065617e-01	 9.945350912396e-04	 8.895034491938e-03	 
4.439730588449e-01	 3.988721811662e-02	 -1.807385222181e-01	 4.457612221236e-01	 4.810088154730e-01	 8.936962076909e+00	 1.013516235340e-03	 1.098717218451e-04	 4.583761371943e-01	 1.008146138866e-03	 9.009763811025e-03	 
3.450090673441e-01	 4.219782316805e-02	 -1.805860841457e-01	 3.475800811752e-01	 3.916927962280e-01	 8.931390073959e+00	 2.023623904324e-04	 1.096796559716e-04	 4.585190978612e-01	 1.069854479507e-03	 9.555287678847e-03	 
2.462260577921e-01	 4.450853701921e-02	 -1.804039230873e-01	 2.502164690891e-01	 3.084701879740e-01	 8.933229622858e+00	 4.701578628315e-04	 1.130260082838e-04	 4.584718858357e-01	 1.130836486527e-03	 1.010202200005e-02	 
1.475914930599e-01	 4.680434234272e-02	 -1.802648566473e-01	 1.548350583227e-01	 2.376327288651e-01	 8.933253936730e+00	 4.736973962828e-04	 1.175430424755e-04	 4.584712619178e-01	 1.191997966912e-03	 1.064842053049e-02	 
4.915050359296e-02	 4.913901741141e-02	 -1.800819754133e-01	 6.950118729634e-02	 1.930283215084e-01	 8.933820819950e+00	 5.562223891562e-04	 1.160679867649e-04	 4.584567158578e-01	 1.253009975518e-03	 1.119416660689e-02	 
8.306407686100e-01	 1.202409997367e-01	 -1.811743972488e-01	 8.392985073827e-01	 8.586303900476e-01	 8.937637673775e+00	 1.111867402880e-03	 1.088070646161e-04	 4.583588125194e-01	 1.137857248767e-03	 1.016975581396e-02	 
7.246770762288e-01	 1.175927301832e-01	 -1.812407156275e-01	 7.341559200902e-01	 7.561964771173e-01	 8.941974893235e+00	 1.743265532572e-03	 1.081243989259e-04	 4.582476377560e-01	 1.047566504414e-03	 9.367313381467e-03	 
6.221132314443e-01	 1.169316650231e-01	 -1.810825337669e-01	 6.330070197266e-01	 6.583986414465e-01	 8.942888235991e+00	 1.876226963990e-03	 1.097847557864e-04	 4.582242365999e-01	 1.034465443089e-03	 9.251108841536e-03	 
5.217883095245e-01	 1.177985310089e-01	 -1.808839175536e-01	 5.349201191433e-01	 5.646755931451e-01	 8.942285832435e+00	 1.788531037560e-03	 1.138894011939e-04	 4.582396706437e-01	 1.025588487522e-03	 9.171105401878e-03	 
4.240522846627e-01	 1.210790572959e-01	 -1.807204192483e-01	 4.409994084388e-01	 4.765924340321e-01	 8.936746868478e+00	 9.821869004975e-04	 1.104006973828e-04	 4.583816563064e-01	 1.013653506327e-03	 9.058764798391e-03	 
3.286627524321e-01	 1.267593152456e-01	 -1.806094611349e-01	 3.522600301450e-01	 3.958622314508e-01	 8.932209588427e+00	 3.216646086572e-04	 1.108006411069e-04	 4.584980632196e-01	 1.013347175098e-03	 9.051429353819e-03	 
2.345336958350e-01	 1.336394969086e-01	 -1.804736338160e-01	 2.699362324994e-01	 3.247095657949e-01	 8.935144975958e+00	 7.489886612968e-04	 1.124317952821e-04	 4.584227437896e-01	 1.072857568380e-03	 9.586137912026e-03	 
1.405308662474e-01	 1.405076997740e-01	 -1.803675540452e-01	 1.987242764838e-01	 2.683724885607e-01	 8.935485848428e+00	 7.986117532053e-04	 1.137528582561e-04	 4.584139997109e-01	 1.132684015877e-03	 1.012108199461e-02	 
4.677834670547e-02	 1.475278937203e-01	 -1.802720853313e-01	 1.547665763207e-01	 2.375935981792e-01	 8.936327713358e+00	 9.211676781631e-04	 1.097622063086e-04	 4.583924062907e-01	 1.189864476381e-03	 1.063301889542e-02	 
8.093997114186e-01	 2.021232073071e-01	 -1.811835656396e-01	 8.342551670662e-01	 8.537032085183e-01	 8.939336232333e+00	 1.359137965634e-03	 1.076667923551e-04	 4.583152641927e-01	 1.175976501555e-03	 1.051244934872e-02	 
7.022252082961e-01	 1.978663898460e-01	 -1.812413564221e-01	 7.295692917038e-01	 7.517444916159e-01	 8.944063472854e+00	 2.047314077360e-03	 1.070589079983e-04	 4.581941306136e-01	 1.086029233365e-03	 9.713514396594e-03	 
6.002096892246e-01	 1.971283042250e-01	 -1.810913712150e-01	 6.317525143327e-01	 6.571950426580e-01	 8.943124285911e+00	 1.910590334195e-03	 1.105916517046e-04	 4.582181892442e-01	 1.028377790361e-03	 9.196910392067e-03	 
5.019922208160e-01	 1.996125030634e-01	 -1.809161965182e-01	 5.402234177995e-01	 5.697122179676e-01	 8.937597133304e+00	 1.105965654522e-03	 1.111785608605e-04	 4.583598520640e-01	 1.006664016478e-03	 8.997157427872e-03	 
4.064316742103e-01	 2.046897492742e-01	 -1.807660372130e-01	 4.550654889786e-01	 4.896539180574e-01	 8.935029865297e+00	 7.322312302784e-04	 1.082180504878e-04	 4.584256967274e-01	 1.013153551824e-03	 9.052557243679e-03	 
3.134629921085e-01	 2.125171592567e-01	 -1.806485890484e-01	 3.787117510722e-01	 4.195908758843e-01	 8.935028653261e+00	 7.320547860616e-04	 1.101527332026e-04	 4.584257278202e-01	 1.003448802425e-03	 8.965843801746e-03	 
2.230116337894e-01	 2.229655473526e-01	 -1.805339437495e-01	 3.153534907238e-01	 3.633735391542e-01	 8.934439047930e+00	 6.462219831330e-04	 1.137321258459e-04	 4.584408538842e-01	 1.014279349919e-03	 9.062017029427e-03	 
1.335665675910e-01	 2.343896331885e-01	 -1.804579172734e-01	 2.697749582972e-01	 3.245667697576e-01	 8.932635315586e+00	 3.836405668059e-04	 1.115647925017e-04	 4.584871371381e-01	 1.073887767104e-03	 9.592647793408e-03	 
4.442913334977e-02	 2.461122979430e-01	 -1.804306797819e-01	 2.500904058315e-01	 3.083835944007e-01	 8.932778951157e+00	 4.045505604354e-04	 1.113899922253e-04	 4.584834509769e-01	 1.127791877020e-03	 1.007431554033e-02	 
7.863661461854e-01	 2.844069127322e-01	 -1.811777620753e-01	 8.362170817894e-01	 8.556193016447e-01	 8.938220100605e+00	 1.196655183279e-03	 1.074888357947e-04	 4.583438786278e-01	 1.178117145252e-03	 1.053027034856e-02	 
6.798404386252e-01	 2.790149999647e-01	 -1.812502424817e-01	 7.348689626018e-01	 7.568910374651e-01	 8.943182425530e+00	 1.919054108547e-03	 1.070436964220e-04	 4.582166998038e-01	 1.071749618957e-03	 9.584852356822e-03	 
5.792067633534e-01	 2.783322088350e-01	 -1.811203630891e-01	 6.426113080154e-01	 6.676480203781e-01	 8.941997740520e+00	 1.746591564990e-03	 1.072571058927e-04	 4.582470523320e-01	 1.019846817911e-03	 9.119467941434e-03	 
4.831112627045e-01	 2.821662061792e-01	 -1.809703329662e-01	 5.594767734781e-01	 5.880174499752e-01	 8.937923001729e+00	 1.153404507067e-03	 1.078669787086e-04	 4.583514962992e-01	 9.816917836979e-04	 8.774285574122e-03	 
3.903040757377e-01	 2.896489994161e-01	 -1.808397609320e-01	 4.860389021470e-01	 5.185912007874e-01	 8.936925973717e+00	 1.008260451516e-03	 1.080270910304e-04	 4.583770630621e-01	 9.859464470161e-04	 8.811330411032e-03	 
2.997337791376e-01	 2.997280932314e-01	 -1.807196576546e-01	 4.238835550340e-01	 4.608002418522e-01	 8.935121000406e+00	 7.454983793688e-04	 1.113403570350e-04	 4.584233588306e-01	 9.872545316576e-04	 8.821238698560e-03	 
2.123124331320e-01	 3.131656372501e-01	 -1.806226020340e-01	 3.783507441736e-01	 4.192538729484e-01	 8.933158635428e+00	 4.598237465261e-04	 1.163446969221e-04	 4.584737074577e-01	 9.807374471261e-04	 8.761083194883e-03	 
1.268616986961e-01	 3.286665395595e-01	 -1.805809947615e-01	 3.523004184245e-01	 3.958851859961e-01	 8.932060250575e+00	 2.999244957302e-04	 1.117252768867e-04	 4.585018960884e-01	 1.028154329315e-03	 9.183536416333e-03	 
4.206488737992e-02	 3.448486437736e-01	 -1.805754304275e-01	 3.474047234319e-01	 3.915322821133e-01	 8.931011009548e+00	 1.471794414605e-04	 1.115212150655e-04	 4.585288283624e-01	 1.065513085572e-03	 9.516109098060e-03	 
7.603349671602e-01	 3.651952572167e-01	 -1.811579712919e-01	 8.434908643133e-01	 8.627253611333e-01	 8.936874338986e+00	 1.000743637401e-03	 1.078226007101e-04	 4.583783872467e-01	 1.132862986303e-03	 1.012425415188e-02	 
6.565542780132e-01	 3.593993246880e-01	 -1.812569953663e-01	 7.484860683831e-01	 7.701204405369e-01	 8.941291061812e+00	 1.643715605364e-03	 1.077002273336e-04	 4.582651608487e-01	 1.015022644095e-03	 9.075612895180e-03	 
5.589485702790e-01	 3.599123599806e-01	 -1.811533947164e-01	 6.648010311994e-01	 6.890406109229e-01	 8.940801545697e+00	 1.572453460883e-03	 1.064587205326e-04	 4.582777058710e-01	 9.913417317971e-04	 8.863389687965e-03	 
4.659032942444e-01	 3.658995645713e-01	 -1.810211924869e-01	 5.924089558246e-01	 6.194489834285e-01	 8.940002959810e+00	 1.456197956653e-03	 1.079341066564e-04	 4.582981737578e-01	 9.566752740201e-04	 8.552679781317e-03	 
3.765703921260e-01	 3.765592648181e-01	 -1.809163610583e-01	 5.325430875961e-01	 5.624347694132e-01	 8.940154452844e+00	 1.478251813767e-03	 1.083639131320e-04	 4.582942907558e-01	 9.834996396150e-04	 8.792638682474e-03	 
2.890350183159e-01	 3.896957467665e-01	 -1.808152556043e-01	 4.851845183647e-01	 5.177819748891e-01	 8.936804880241e+00	 9.906320619442e-04	 1.108244596564e-04	 4.583801685503e-01	 1.010876380249e-03	 9.034004968326e-03	 
2.041246567937e-01	 4.058143441789e-01	 -1.807587432546e-01	 4.542600108445e-01	 4.889027313438e-01	 8.933537854820e+00	 5.150292570535e-04	 1.120106275596e-04	 4.584639764884e-01	 9.914115987354e-04	 8.856813047010e-03	 
1.216060528868e-01	 4.244344472034e-01	 -1.807640298540e-01	 4.415117575689e-01	 4.770830814026e-01	 8.932804292333e+00	 4.082396454115e-04	 1.090227290304e-04	 4.584828006482e-01	 1.009826331346e-03	 9.020580987155e-03	 
4.032684611061e-02	 4.443261875599e-01	 -1.807488826072e-01	 4.461524576518e-01	 4.813752943728e-01	 8.935432705130e+00	 7.908753268610e-04	 1.111366621632e-04	 4.584153629127e-01	 1.034076275935e-03	 9.239918975586e-03	 
7.316399273699e-01	 4.434181725091e-01	 -1.811191049115e-01	 8.555212791235e-01	 8.744831554679e-01	 8.938641384206e+00	 1.257984262854e-03	 1.065766153540e-04	 4.583330774878e-01	 1.027420042305e-03	 9.183739309108e-03	 
6.333170928427e-01	 4.388995968283e-01	 -1.812407957693e-01	 7.705344873416e-01	 7.915627721374e-01	 8.941891721786e+00	 1.731157706850e-03	 1.089342276802e-04	 4.582497689064e-01	 9.656024745391e-04	 8.634312773618e-03	 
5.403138284201e-01	 4.419340569806e-01	 -1.811807724348e-01	 6.980291855655e-01	 7.211596329533e-01	 8.941351337014e+00	 1.652490270817e-03	 1.093169527327e-04	 4.582636162236e-01	 9.382014980165e-04	 8.388789218678e-03	 
4.516011323050e-01	 4.515862610486e-01	 -1.810982582528e-01	 6.386499306091e-01	 6.638300332232e-01	 8.940902656919e+00	 1.587172899714e-03	 1.093111086534e-04	 4.582751145695e-01	 9.422017459830e-04	 8.424134094013e-03	 
3.659707791511e-01	 4.659464666300e-01	 -1.810339749355e-01	 5.924868951778e-01	 6.195272560899e-01	 8.941302350293e+00	 1.645358945200e-03	 1.079086496097e-04	 4.582648715665e-01	 9.553613896044e-04	 8.542175038249e-03	 
2.814579675502e-01	 4.824326225989e-01	 -1.809733849659e-01	 5.585336362701e-01	 5.871211024236e-01	 8.938130235688e+00	 1.183572944553e-03	 1.108108393209e-04	 4.583461827412e-01	 9.925524911492e-04	 8.871563431649e-03	 
1.986652990756e-01	 5.010875102458e-01	 -1.809333144021e-01	 5.390330175241e-01	 5.685890064376e-01	 8.934711885551e+00	 6.859407856390e-04	 1.100823663508e-04	 4.584338541696e-01	 9.865036519574e-04	 8.814125904283e-03	 
1.184972059180e-01	 5.223906662165e-01	 -1.809498840424e-01	 5.356618298521e-01	 5.653993778697e-01	 8.936027525641e+00	 8.774673385237e-04	 1.083256509154e-04	 4.584001056075e-01	 9.986625951892e-04	 8.924076439438e-03	 
3.942342362474e-02	 5.447796700314e-01	 -1.809524114944e-01	 5.462042614351e-01	 5.753980104549e-01	 8.939746591801e+00	 1.418876746005e-03	 1.119790590370e-04	 4.583047450932e-01	 1.014526469852e-03	 9.069609551153e-03	 
7.028043920723e-01	 5.196262339018e-01	 -1.810270097909e-01	 8.740397224813e-01	 8.925896116071e-01	 8.938993596633e+00	 1.309258188479e-03	 1.061613870346e-04	 4.583240478250e-01	 9.129592200622e-04	 8.160936622123e-03	 
6.129238650712e-01	 5.184874739017e-01	 -1.811855630202e-01	 8.028106407907e-01	 8.230025110616e-01	 8.943983431958e+00	 2.035661987113e-03	 1.099924155862e-04	 4.581961808291e-01	 8.824447545460e-04	 7.892571264277e-03	 
5.261659866799e-01	 5.261456056687e-01	 -1.811929067045e-01	 7.440966630105e-01	 7.658398744799e-01	 8.942975733799e+00	 1.888964606838e-03	 1.088236012965e-04	 4.582219949683e-01	 9.266099212702e-04	 8.286650040617e-03	 
4.420229529664e-01	 5.403830073747e-01	 -1.811914096028e-01	 6.981390159621e-01	 7.212686132935e-01	 8.940915315913e+00	 1.589015754351e-03	 1.075393486505e-04	 4.582747901450e-01	 9.392160993268e-04	 8.397451607423e-03	 
3.598639482174e-01	 5.588964958504e-01	 -1.811591430850e-01	 6.647310390680e-01	 6.889745927273e-01	 8.941053391966e+00	 1.609116411575e-03	 1.067480501181e-04	 4.582712515788e-01	 9.929861265959e-04	 8.878341975375e-03	 
2.772132852340e-01	 5.781799464917e-01	 -1.811284985021e-01	 6.412014161209e-01	 6.662933205466e-01	 8.941578696094e+00	 1.685588457155e-03	 1.068859831841e-04	 4.582577900121e-01	 1.042603730065e-03	 9.322523301219e-03	 
1.959556537246e-01	 5.991511955490e-01	 -1.811097547559e-01	 6.303814506744e-01	 6.558822429538e-01	 8.941651381583e+00	 1.696169771283e-03	 1.080403399421e-04	 4.582559274502e-01	 1.006701021730e-03	 9.001569581789e-03	 
1.173284595444e-01	 6.225154445418e-01	 -1.811232344049e-01	 6.334756870726e-01	 6.588604345030e-01	 8.940952410384e+00	 1.594415845325e-03	 1.081394334037e-04	 4.582738394924e-01	 1.009380848521e-03	 9.024826130580e-03	 
3.913932928822e-02	 6.460678715362e-01	 -1.811344534687e-01	 6.472523323469e-01	 6.721199833079e-01	 8.940310659869e+00	 1.500991918172e-03	 1.108899202260e-04	 4.582902870302e-01	 1.017896795307e-03	 9.100313569726e-03	 
6.771117881265e-01	 5.928876704908e-01	 -1.808539878537e-01	 8.999978685752e-01	 9.179892855380e-01	 8.938503865438e+00	 1.237964733405e-03	 1.071435071030e-04	 4.583366031985e-01	 7.203716652284e-04	 6.439044914196e-03	 
5.985664109586e-01	 5.984818387603e-01	 -1.810903703121e-01	 8.464409368962e-01	 8.655957381327e-01	 8.943241525556e+00	 1.927657695727e-03	 1.092651411329e-04	 4.582151857743e-01	 7.850667953050e-04	 7.021041964107e-03	 
5.190832320482e-01	 6.134217492311e-01	 -1.811899586797e-01	 8.035755373476e-01	 8.237496254019e-01	 8.943521541130e+00	 1.968421441137e-03	 1.079102132492e-04	 4.582080125153e-01	 9.022739822947e-04	 8.069506796654e-03	 
4.394683717882e-01	 6.338404389386e-01	 -1.812340120202e-01	 7.712886306928e-01	 7.922953483070e-01	 8.942189458024e+00	 1.774501168121e-03	 1.074450459295e-04	 4.582421399751e-01	 9.685524611855e-04	 8.660979607957e-03	 
3.596939524602e-01	 6.568351786056e-01	 -1.812393572197e-01	 7.488739488661e-01	 7.704932808894e-01	 8.942279334662e+00	 1.787585113181e-03	 1.069524873189e-04	 4.582398371301e-01	 1.040654238022e-03	 9.305820887197e-03	 
2.785030375359e-01	 6.794022090947e-01	 -1.812331757823e-01	 7.342692310314e-01	 7.563046791100e-01	 8.944826805671e+00	 2.158437555659e-03	 1.073028717714e-04	 4.581745795319e-01	 1.092907422344e-03	 9.775867607497e-03	 
1.978961835417e-01	 7.023074956655e-01	 -1.812375176272e-01	 7.296565753342e-01	 7.518282754220e-01	 8.945408296212e+00	 2.243089034235e-03	 1.093671691114e-04	 4.581596876173e-01	 1.095657604339e-03	 9.801104623660e-03	 
1.185320474175e-01	 7.256267473732e-01	 -1.812586980956e-01	 7.352441926112e-01	 7.572573792336e-01	 8.942894872722e+00	 1.877193117422e-03	 1.096978069775e-04	 4.582240665705e-01	 1.064233587797e-03	 9.517329095689e-03	 
