# state dump file
# x  y  z  radius_2D  radius_3D  den  pres  sie  sspd  vol  mass 
4.263664554251e-02	 9.570174204284e-01	 -1.802516729477e-01	 9.579667147383e-01	 9.747773551673e-01	 8.935824605812e+00	 8.479269379162e-04	 1.002501256740e-04	 4.584053103842e-01	 1.179656952667e-03	 1.054120762405e-02	 
1.281004089946e-01	 9.446365153204e-01	 -1.802922479215e-01	 9.532826762620e-01	 9.701820218504e-01	 8.936842771616e+00	 9.961481635782e-04	 9.989316125338e-05	 4.583791968048e-01	 1.299208499190e-03	 1.161082208480e-02	 
2.128792136023e-01	 9.266150994546e-01	 -1.803069346752e-01	 9.507539650831e-01	 9.677002081291e-01	 8.935597676409e+00	 8.148913025348e-04	 9.887984250758e-05	 4.584111312026e-01	 1.351133514485e-03	 1.207318549255e-02	 
2.967893891500e-01	 9.032133769451e-01	 -1.802958811495e-01	 9.507251683871e-01	 9.676698561824e-01	 8.933936527475e+00	 5.730667096159e-04	 9.833825257961e-05	 4.584537470062e-01	 1.381433906916e-03	 1.234164284129e-02	 
3.790581130738e-01	 8.744561067842e-01	 -1.802597597829e-01	 9.530784520591e-01	 9.699753176119e-01	 8.931764415119e+00	 2.568577440258e-04	 9.800246878140e-05	 4.585094892127e-01	 1.321651376509e-03	 1.180467873390e-02	 
4.578487835604e-01	 8.397519426895e-01	 -1.801979729695e-01	 9.564563941228e-01	 9.732831773543e-01	 8.932173359273e+00	 3.163904876921e-04	 9.846675288021e-05	 4.584989930594e-01	 1.241246229692e-03	 1.108702650516e-02	 
5.340289438069e-01	 8.012099513936e-01	 -1.800918219567e-01	 9.628729402344e-01	 9.795699890112e-01	 8.934424386386e+00	 6.440876037901e-04	 9.821416512669e-05	 4.584412300387e-01	 1.121917924256e-03	 1.002369086199e-02	 
6.057942929362e-01	 7.600369576393e-01	 -1.799511912046e-01	 9.719274161848e-01	 9.884459183727e-01	 8.934104421486e+00	 5.975081670389e-04	 9.743091290290e-05	 4.584494392437e-01	 8.751952661022e-04	 7.819085896547e-03	 
6.693928959670e-01	 7.187819122559e-01	 -1.797794911604e-01	 9.822088813269e-01	 9.985263902368e-01	 8.932732194357e+00	 3.977438594335e-04	 9.870646897595e-05	 4.584846509004e-01	 5.726684719625e-04	 5.115494096193e-03	 
7.184825900481e-01	 6.689405826670e-01	 -1.797882263661e-01	 9.816815855159e-01	 9.980092893761e-01	 8.933402705512e+00	 4.953546657596e-04	 9.798422135662e-05	 4.584674444198e-01	 5.849562264768e-04	 5.225649536213e-03	 
7.594992387336e-01	 6.051027649079e-01	 -1.799712371669e-01	 9.710759237754e-01	 9.876123206722e-01	 8.934798035430e+00	 6.984822014204e-04	 9.745097884890e-05	 4.584316440403e-01	 8.895451677858e-04	 7.947906417559e-03	 
8.009461526585e-01	 5.337057293565e-01	 -1.801183251165e-01	 9.624741788778e-01	 9.791829022451e-01	 8.936365779361e+00	 9.267092015287e-04	 9.779408222942e-05	 4.583914299886e-01	 1.124871071404e-03	 1.005225934869e-02	 
8.396623574220e-01	 4.577662592604e-01	 -1.802229312931e-01	 9.563382364984e-01	 9.731716845206e-01	 8.936167716453e+00	 8.978758554715e-04	 9.877454404948e-05	 4.583965098975e-01	 1.241742207206e-03	 1.109641662419e-02	 
8.743418751045e-01	 3.789727490979e-01	 -1.802731549471e-01	 9.529396933280e-01	 9.698414661761e-01	 8.936217125928e+00	 9.050687240701e-04	 9.882019612166e-05	 4.583952426296e-01	 1.324533793279e-03	 1.183632156737e-02	 
9.029197458726e-01	 2.965156951292e-01	 -1.803060994619e-01	 9.503607867250e-01	 9.673137621515e-01	 8.935669638437e+00	 8.253672976028e-04	 9.855365546206e-05	 4.584092853275e-01	 1.393404751881e-03	 1.245100453544e-02	 
9.258779069068e-01	 2.121244103580e-01	 -1.803177845925e-01	 9.498666558880e-01	 9.668304750100e-01	 8.934216925426e+00	 6.138861202396e-04	 9.877469262228e-05	 4.584465527271e-01	 1.380512446498e-03	 1.233379766526e-02	 
9.437585731934e-01	 1.271835946304e-01	 -1.802962049778e-01	 9.522898252209e-01	 9.692072186837e-01	 8.934075006958e+00	 5.932260969164e-04	 9.914999546961e-05	 4.584501939420e-01	 1.317960608720e-03	 1.177475893452e-02	 
9.566573040809e-01	 4.226055888424e-02	 -1.802492759816e-01	 9.575902841448e-01	 9.744069754371e-01	 8.933932265341e+00	 5.724462421800e-04	 9.971666128838e-05	 4.584538563640e-01	 1.179010385487e-03	 1.053319892407e-02	 
8.510337185107e-01	 3.979627173499e-02	 -1.811330246526e-01	 8.519636924694e-01	 8.710059161142e-01	 8.940232008568e+00	 1.489542120693e-03	 1.082015714718e-04	 4.582923029202e-01	 1.060456259114e-03	 9.480724991421e-03	 
7.478324587857e-01	 3.896628583867e-02	 -1.812359054589e-01	 7.488469522176e-01	 7.704662298070e-01	 8.944589419593e+00	 2.123879671933e-03	 1.085361271777e-04	 4.581806593831e-01	 1.017666714122e-03	 9.102610923808e-03	 
6.455557639284e-01	 3.857294697064e-02	 -1.811080730599e-01	 6.467071335460e-01	 6.715878577719e-01	 8.942894238436e+00	 1.877100780091e-03	 1.093374526154e-04	 4.582240828205e-01	 1.007598793810e-03	 9.010849447819e-03	 
5.439816687304e-01	 3.853820634903e-02	 -1.809629706732e-01	 5.453450735666e-01	 5.745858038781e-01	 8.939130489748e+00	 1.329186637423e-03	 1.114668968552e-04	 4.583205384430e-01	 9.950670819874e-04	 8.895034491938e-03	 
4.439454065977e-01	 3.989490078009e-02	 -1.808023814256e-01	 4.457343683714e-01	 4.810079295362e-01	 8.935235040873e+00	 7.621000150692e-04	 1.123404752168e-04	 4.584204333910e-01	 1.008340997166e-03	 9.009763811025e-03	 
3.449437682666e-01	 4.219251068015e-02	 -1.806089828426e-01	 3.475146201578e-01	 3.916452679491e-01	 8.931280502349e+00	 1.864113162250e-04	 1.104609873415e-04	 4.585219104770e-01	 1.069867604800e-03	 9.555287678847e-03	 
2.461346903609e-01	 4.449609435367e-02	 -1.803807155829e-01	 2.501243455000e-01	 3.083818911123e-01	 8.933536202462e+00	 5.147887122238e-04	 1.112141357774e-04	 4.584640188874e-01	 1.130797678670e-03	 1.010202200005e-02	 
1.475327109674e-01	 4.678558162326e-02	 -1.801779368410e-01	 1.547733551139e-01	 2.375265887801e-01	 8.935825911683e+00	 8.481170423683e-04	 1.154384036712e-04	 4.584052768888e-01	 1.191654877314e-03	 1.064842053049e-02	 
4.913834785343e-02	 4.911659988343e-02	 -1.799813706296e-01	 6.947674153179e-02	 1.929256628539e-01	 8.934023295840e+00	 5.856981626216e-04	 1.173525649363e-04	 4.584515207203e-01	 1.252981577975e-03	 1.119416660689e-02	 
8.306594298186e-01	 1.202371567532e-01	 -1.811623678151e-01	 8.393164255575e-01	 8.586453666812e-01	 8.941278973718e+00	 1.641955860421e-03	 1.090767696275e-04	 4.582654706226e-01	 1.137393860974e-03	 1.016975581396e-02	 
7.247149286525e-01	 1.175831802196e-01	 -1.812203578469e-01	 7.341917543001e-01	 7.562263881805e-01	 8.945368435610e+00	 2.237286259000e-03	 1.082773239021e-04	 4.581607083969e-01	 1.047169096376e-03	 9.367313381467e-03	 
6.221464149436e-01	 1.169124097139e-01	 -1.810865298819e-01	 6.330360757274e-01	 6.584276759652e-01	 8.942165429962e+00	 1.771003241921e-03	 1.089232332170e-04	 4.582427556349e-01	 1.034549060179e-03	 9.251108841536e-03	 
5.217896462228e-01	 1.178001279791e-01	 -1.809383363277e-01	 5.349217747084e-01	 5.646945958748e-01	 8.937080520112e+00	 1.030758806964e-03	 1.143450134518e-04	 4.583730997528e-01	 1.026185831183e-03	 9.171105401878e-03	 
4.240174649632e-01	 1.210961152758e-01	 -1.807750016043e-01	 4.409706109580e-01	 4.765864884087e-01	 8.933384949420e+00	 4.927697923845e-04	 1.138682096601e-04	 4.584679000469e-01	 1.014034976628e-03	 9.058764798391e-03	 
3.285929263736e-01	 1.267551523339e-01	 -1.806233674185e-01	 3.521933842450e-01	 3.958092732157e-01	 8.929471469937e+00	 -7.694166644183e-05	 1.106055220413e-04	 4.585683543787e-01	 1.013657906215e-03	 9.051429353819e-03	 
2.344469055653e-01	 1.336149706564e-01	 -1.804441709969e-01	 2.698486833628e-01	 3.246204102632e-01	 8.932523561507e+00	 3.673717759920e-04	 1.089765178761e-04	 4.584900051768e-01	 1.073172418300e-03	 9.586137912026e-03	 
1.404810858056e-01	 1.404647264679e-01	 -1.802862317200e-01	 1.986586893413e-01	 2.682692680845e-01	 8.935413968774e+00	 7.881477498523e-04	 1.134882115739e-04	 4.584158435300e-01	 1.132693127591e-03	 1.012108199461e-02	 
4.677157331012e-02	 1.474871092325e-01	 -1.801515936066e-01	 1.547256522354e-01	 2.374755232412e-01	 8.928422663256e+00	 -2.296234901244e-04	 1.151218155388e-04	 4.585952872115e-01	 1.190917959023e-03	 1.063301889542e-02	 
8.094149874403e-01	 2.021238250093e-01	 -1.811795280284e-01	 8.342701376229e-01	 8.537169811512e-01	 8.941486099565e+00	 1.672108559260e-03	 1.077790625558e-04	 4.582601628263e-01	 1.175693752880e-03	 1.051244934872e-02	 
7.022572687673e-01	 1.978688385137e-01	 -1.812318591039e-01	 7.296008146866e-01	 7.517727951619e-01	 8.943483912977e+00	 1.962943658413e-03	 1.067768541843e-04	 4.582089764295e-01	 1.086099610746e-03	 9.713514396594e-03	 
6.002364065029e-01	 1.971286735711e-01	 -1.810863507417e-01	 6.317780129408e-01	 6.572181708234e-01	 8.941134322647e+00	 1.620898033683e-03	 1.098053159590e-04	 4.582691775529e-01	 1.028606668929e-03	 9.196910392067e-03	 
5.019983549101e-01	 1.996205427220e-01	 -1.809405103973e-01	 5.402320884667e-01	 5.697281612417e-01	 8.937781479755e+00	 1.132802203959e-03	 1.114790452358e-04	 4.583551250829e-01	 1.006643253502e-03	 8.997157427872e-03	 
4.064101229323e-01	 2.046978420378e-01	 -1.808043112911e-01	 4.550498813941e-01	 4.896535443946e-01	 8.933845089180e+00	 5.597554237841e-04	 1.108313716599e-04	 4.584560931472e-01	 1.013287912798e-03	 9.052557243679e-03	 
3.134072578767e-01	 2.125142275998e-01	 -1.806527251890e-01	 3.786639753425e-01	 4.195495362176e-01	 8.933573993661e+00	 5.202902306583e-04	 1.109982008037e-04	 4.584630491790e-01	 1.003612194639e-03	 8.965843801746e-03	 
2.229424232014e-01	 2.229441111743e-01	 -1.805194227762e-01	 3.152893920991e-01	 3.633106972960e-01	 8.935068122383e+00	 7.378005709435e-04	 1.118501054989e-04	 4.584247153107e-01	 1.014207939470e-03	 9.062017029427e-03	 
1.335256826574e-01	 2.343408230385e-01	 -1.804318171504e-01	 2.697123083426e-01	 3.245001847637e-01	 8.935050757626e+00	 7.352726666728e-04	 1.103784732566e-04	 4.584251607716e-01	 1.073597459446e-03	 9.592647793408e-03	 
4.442178151756e-02	 2.460712294521e-01	 -1.803756759512e-01	 2.500486845341e-01	 3.083175783378e-01	 8.928187742865e+00	 -2.638224272297e-04	 1.124423182487e-04	 4.586013205006e-01	 1.128371829813e-03	 1.007431554033e-02	 
7.863793245558e-01	 2.844132205221e-01	 -1.811819840330e-01	 8.362316198857e-01	 8.556344040738e-01	 8.941506854268e+00	 1.675129960693e-03	 1.073136612405e-04	 4.582596309775e-01	 1.177684088397e-03	 1.053027034856e-02	 
6.798660385028e-01	 2.790296214755e-01	 -1.812463735238e-01	 7.348981970112e-01	 7.569184948763e-01	 8.942521154952e+00	 1.822788514913e-03	 1.070313699158e-04	 4.582336413136e-01	 1.071828871382e-03	 9.584852356822e-03	 
5.792197872529e-01	 2.783548330023e-01	 -1.811093399095e-01	 6.426328461891e-01	 6.676657606944e-01	 8.941185540317e+00	 1.628354133474e-03	 1.079109234733e-04	 4.582678650025e-01	 1.019939458846e-03	 9.119467941434e-03	 
4.831170185951e-01	 2.821900525651e-01	 -1.809774811395e-01	 5.594937706739e-01	 5.880358221252e-01	 8.939797736760e+00	 1.426322260705e-03	 1.084677075849e-04	 4.583034341010e-01	 9.814859164031e-04	 8.774285574122e-03	 
3.903031788373e-01	 2.896545997348e-01	 -1.808743471943e-01	 4.860415193767e-01	 5.186057153860e-01	 8.933818919378e+00	 5.559457101803e-04	 1.085026272086e-04	 4.584567646236e-01	 9.862893450772e-04	 8.811330411032e-03	 
2.997090435198e-01	 2.997211773813e-01	 -1.807444225206e-01	 4.238611741341e-01	 4.607893675104e-01	 8.932936920072e+00	 4.275471548665e-04	 1.128389351141e-04	 4.584793970776e-01	 9.874959128771e-04	 8.821238698560e-03	 
2.122863318304e-01	 3.131491046941e-01	 -1.806252265054e-01	 3.783224133628e-01	 4.192294370662e-01	 8.935677722852e+00	 8.265442001913e-04	 1.155281837288e-04	 4.584090779581e-01	 9.804609640830e-04	 8.761083194883e-03	 
1.268569071865e-01	 3.286293566366e-01	 -1.805753994900e-01	 3.522640046106e-01	 3.958502290580e-01	 8.932561814534e+00	 3.729405256492e-04	 1.110221162144e-04	 4.584890234512e-01	 1.028096598379e-03	 9.183536416333e-03	 
4.206678176487e-02	 3.448041846858e-01	 -1.805897410478e-01	 3.473608209123e-01	 3.914999290889e-01	 8.932105767930e+00	 3.065507625031e-04	 1.113223783977e-04	 4.585007278409e-01	 1.065382491576e-03	 9.516109098060e-03	 
7.603506462249e-01	 3.651928988894e-01	 -1.811547649035e-01	 8.435039766438e-01	 8.627375078557e-01	 8.941688219060e+00	 1.701532449992e-03	 1.078065001561e-04	 4.582549835003e-01	 1.132253094030e-03	 1.012425415188e-02	 
6.565748327071e-01	 3.594061769092e-01	 -1.812517002177e-01	 7.485073887043e-01	 7.701399157145e-01	 8.943138124306e+00	 1.912604882101e-03	 1.076317703820e-04	 4.582178347262e-01	 1.014813007362e-03	 9.075612895180e-03	 
5.589563796123e-01	 3.599300201171e-01	 -1.811434177415e-01	 6.648171580899e-01	 6.890535476157e-01	 8.943655561690e+00	 1.987931712946e-03	 1.066811218299e-04	 4.582045793819e-01	 9.910253840646e-04	 8.863389687965e-03	 
4.659101717198e-01	 3.659254596593e-01	 -1.810263650519e-01	 5.924303588936e-01	 6.194709637931e-01	 8.942747231330e+00	 1.855699969703e-03	 1.078694119820e-04	 4.582278491083e-01	 9.563816979365e-04	 8.552679781317e-03	 
3.765766005571e-01	 3.765823684871e-01	 -1.809402020133e-01	 5.325638143383e-01	 5.624620636516e-01	 8.937590134395e+00	 1.104946776396e-03	 1.078446129881e-04	 4.583600315317e-01	 9.837818192890e-04	 8.792638682474e-03	 
2.890363193158e-01	 3.897044066629e-01	 -1.808507164828e-01	 4.851922489654e-01	 5.178016030377e-01	 8.934116210877e+00	 5.992244278512e-04	 1.111352970657e-04	 4.584491367604e-01	 1.011180597509e-03	 9.034004968326e-03	 
2.041337902534e-01	 4.058091517580e-01	 -1.807734101816e-01	 4.542594764820e-01	 4.889076577457e-01	 8.935054597989e+00	 7.358317341366e-04	 1.121851881745e-04	 4.584250622540e-01	 9.912433046580e-04	 8.856813047010e-03	 
1.216222955777e-01	 4.244202612574e-01	 -1.807553059154e-01	 4.415025944967e-01	 4.770712961015e-01	 8.932841305165e+00	 4.136278515200e-04	 1.090265176592e-04	 4.584818507956e-01	 1.009822147175e-03	 9.020580987155e-03	 
4.033394750771e-02	 4.443028880538e-01	 -1.807627246359e-01	 4.461298954952e-01	 4.813595810538e-01	 8.934079697261e+00	 5.939088957068e-04	 1.099582569868e-04	 4.584500736011e-01	 1.034232880016e-03	 9.239918975586e-03	 
7.316564212234e-01	 4.434098978190e-01	 -1.811170901454e-01	 8.555310959874e-01	 8.744923421872e-01	 8.940797617351e+00	 1.571881585281e-03	 1.067121218782e-04	 4.582778065485e-01	 1.027172261598e-03	 9.183739309108e-03	 
6.333298621852e-01	 4.388966287438e-01	 -1.812440679964e-01	 7.705432921376e-01	 7.915720922582e-01	 8.941876865954e+00	 1.728995043697e-03	 1.088397905327e-04	 4.582501495691e-01	 9.656040787692e-04	 8.634312773618e-03	 
5.403157082401e-01	 4.419368511091e-01	 -1.811784378100e-01	 6.980324096626e-01	 7.211621671071e-01	 8.944455274207e+00	 2.104351228318e-03	 1.093688156953e-04	 4.581840951759e-01	 9.378759199422e-04	 8.388789218678e-03	 
4.516030748001e-01	 4.515962650978e-01	 -1.810902015650e-01	 6.386583780232e-01	 6.638359623598e-01	 8.945116545409e+00	 2.200616912897e-03	 1.090540314709e-04	 4.581671591447e-01	 9.417578911631e-04	 8.424134094013e-03	 
3.659723756967e-01	 4.659687047796e-01	 -1.810290287778e-01	 5.925053701082e-01	 6.195434794002e-01	 8.943297685917e+00	 1.935833336225e-03	 1.080695182577e-04	 4.582137470672e-01	 9.551482393010e-04	 8.542175038249e-03	 
2.814594489818e-01	 4.824458074171e-01	 -1.809646834969e-01	 5.585457711911e-01	 5.871299644786e-01	 8.941171949117e+00	 1.626375571345e-03	 1.097954602990e-04	 4.582682133018e-01	 9.922148329252e-04	 8.871563431649e-03	 
1.986711458114e-01	 5.010789771124e-01	 -1.809328582576e-01	 5.390272400185e-01	 5.685833841041e-01	 8.938188347605e+00	 1.192032686001e-03	 1.095073153500e-04	 4.583446927627e-01	 9.861199564725e-04	 8.814125904283e-03	 
1.185059762758e-01	 5.223775658923e-01	 -1.809531799456e-01	 5.356509943616e-01	 5.653901671351e-01	 8.937203440439e+00	 1.048653143347e-03	 1.084615574655e-04	 4.583699475607e-01	 9.985311959062e-04	 8.924076439438e-03	 
3.942763721264e-02	 5.447717967518e-01	 -1.809487682092e-01	 5.461967128355e-01	 5.753896990986e-01	 8.940793210422e+00	 1.571240039107e-03	 1.121075966016e-04	 4.582779194913e-01	 1.014407708321e-03	 9.069609551153e-03	 
7.028159868387e-01	 5.196226540320e-01	 -1.810312916932e-01	 8.740469174703e-01	 8.925975254903e-01	 8.939492642642e+00	 1.381907663379e-03	 1.061519987953e-04	 4.583112547064e-01	 9.129082542331e-04	 8.160936622123e-03	 
6.129308591126e-01	 5.184856066926e-01	 -1.812158393858e-01	 8.028147746522e-01	 8.230132093983e-01	 8.940361102732e+00	 1.508335224165e-03	 1.097686912908e-04	 4.582889941570e-01	 8.828022910468e-04	 7.892571264277e-03	 
5.261652942760e-01	 5.261433895949e-01	 -1.812163523789e-01	 7.440946064279e-01	 7.658434237392e-01	 8.942606398580e+00	 1.835198001528e-03	 1.084474020959e-04	 4.582314572977e-01	 9.266481908377e-04	 8.286650040617e-03	 
4.420158752474e-01	 5.403809795443e-01	 -1.811872547653e-01	 6.981329651463e-01	 7.212617127738e-01	 8.943226462067e+00	 1.925464802628e-03	 1.074294109938e-04	 4.582155716706e-01	 9.389733831566e-04	 8.397451607423e-03	 
3.598521337835e-01	 5.588953972356e-01	 -1.811479388080e-01	 6.647237194803e-01	 6.889645847024e-01	 8.944213823488e+00	 2.069201627565e-03	 1.068799681272e-04	 4.581902795167e-01	 9.926352556622e-04	 8.878341975375e-03	 
2.772015360033e-01	 5.781677399986e-01	 -1.811174193800e-01	 6.411853297898e-01	 6.662748282357e-01	 8.944764196247e+00	 2.149323081907e-03	 1.072449839738e-04	 4.581761830396e-01	 1.042232427450e-03	 9.322523301219e-03	 
1.959477981933e-01	 5.991237380840e-01	 -1.811158257986e-01	 6.303529115920e-01	 6.558564900245e-01	 8.942445820514e+00	 1.811821575330e-03	 1.079486094906e-04	 4.582355714736e-01	 1.006611587306e-03	 9.001569581789e-03	 
1.173240653818e-01	 6.224872438863e-01	 -1.811287613186e-01	 6.334471604790e-01	 6.588345264903e-01	 8.941943215067e+00	 1.738653929181e-03	 1.084705298655e-04	 4.582484494606e-01	 1.009269004904e-03	 9.024826130580e-03	 
3.913708557949e-02	 6.460473730489e-01	 -1.811326298758e-01	 6.472317356952e-01	 6.720996572658e-01	 8.944062836772e+00	 2.047221478625e-03	 1.114277604594e-04	 4.581941469064e-01	 1.017469771379e-03	 9.100313569726e-03	 
6.771218746355e-01	 5.928877113649e-01	 -1.808643807095e-01	 9.000054840929e-01	 9.179987993493e-01	 8.938043864837e+00	 1.170999360433e-03	 1.071763478378e-04	 4.583483973004e-01	 7.204087394924e-04	 6.439044914196e-03	 
5.985733035231e-01	 5.984803258861e-01	 -1.811174527321e-01	 8.464447413524e-01	 8.656051246656e-01	 8.940462103938e+00	 1.523038647146e-03	 1.090182660405e-04	 4.582864054837e-01	 7.853108578151e-04	 7.021041964107e-03	 
5.190849758294e-01	 6.134196544230e-01	 -1.812053810662e-01	 8.035750646730e-01	 8.237525567132e-01	 8.941077683529e+00	 1.612652697363e-03	 1.080370793998e-04	 4.582706290513e-01	 9.025206001196e-04	 8.069506796654e-03	 
4.394600145958e-01	 6.338362869164e-01	 -1.812408650531e-01	 7.712804567993e-01	 7.922889587806e-01	 8.940484543391e+00	 1.526305308816e-03	 1.075223521122e-04	 4.582858303637e-01	 9.687371602649e-04	 8.660979607957e-03	 
3.596772885563e-01	 6.568204465279e-01	 -1.812354892102e-01	 7.488530235502e-01	 7.704720328666e-01	 8.942015976243e+00	 1.749246261513e-03	 1.071645284897e-04	 4.582465850732e-01	 1.040684887158e-03	 9.305820887197e-03	 
2.784865352934e-01	 6.793767474421e-01	 -1.812348833927e-01	 7.342394127972e-01	 7.562761388958e-01	 8.943663447499e+00	 1.989079703104e-03	 1.074290351803e-04	 4.582043773778e-01	 1.093049583639e-03	 9.775867607497e-03	 
1.978810428974e-01	 7.022780655880e-01	 -1.812524146120e-01	 7.296241419691e-01	 7.518003899619e-01	 8.942342155723e+00	 1.796730396419e-03	 1.091728628836e-04	 4.582382275315e-01	 1.096033282219e-03	 9.801104623660e-03	 
1.185183084651e-01	 7.255955396397e-01	 -1.812640931359e-01	 7.352111782246e-01	 7.572266160449e-01	 8.942977650989e+00	 1.889243705072e-03	 1.097757975732e-04	 4.582219458516e-01	 1.064223737005e-03	 9.517329095689e-03	 
